# My local database
# https://journals.aps.org/prl/abstract/10.1103/PhysRevLett.114.171103
# T [GeV] flux [m-2 s-1 sr-1 GeV-1] total_error_low total_error_high
 4.924e-01  8.304e+02  3.552e+01  3.552e+01
 6.207e-01  8.296e+02  2.830e+01  2.830e+01
 7.637e-01  7.709e+02  2.122e+01  2.122e+01
 9.252e-01  7.013e+02  1.748e+01  1.748e+01
 1.105e+00  6.241e+02  1.419e+01  1.419e+01
 1.303e+00  5.498e+02  1.145e+01  1.145e+01
 1.523e+00  4.781e+02  9.197e+00  9.197e+00
 1.765e+00  4.135e+02  7.358e+00  7.358e+00
 2.034e+00  3.540e+02  5.903e+00  5.903e+00
 2.329e+00  3.009e+02  4.803e+00  4.803e+00
 2.652e+00  2.541e+02  3.835e+00  3.835e+00
 3.005e+00  2.129e+02  3.090e+00  3.090e+00
 3.390e+00  1.773e+02  2.563e+00  2.563e+00
 3.810e+00  1.467e+02  2.040e+00  2.040e+00
 4.272e+00  1.204e+02  1.627e+00  1.627e+00
 4.774e+00  9.824e+01  1.318e+00  1.318e+00
 5.317e+00  7.993e+01  1.052e+00  1.052e+00
 5.906e+00  6.481e+01  8.382e-01  8.382e-01
 6.546e+00  5.238e+01  6.756e-01  6.756e-01
 7.236e+00  4.228e+01  5.437e-01  5.437e-01
 7.981e+00  3.405e+01  4.325e-01  4.325e-01
 8.787e+00  2.737e+01  3.417e-01  3.417e-01
 9.653e+00  2.199e+01  2.813e-01  2.813e-01
 1.060e+01  1.764e+01  2.210e-01  2.210e-01
 1.160e+01  1.421e+01  1.808e-01  1.808e-01
 1.264e+01  1.151e+01  1.504e-01  1.504e-01
 1.379e+01  9.285e+00  1.183e-01  1.183e-01
 1.504e+01  7.473e+00  9.521e-02  9.521e-02
 1.639e+01  6.004e+00  7.717e-02  7.717e-02
 1.784e+01  4.838e+00  6.211e-02  6.211e-02
 1.938e+01  3.898e+00  5.009e-02  5.009e-02
 2.103e+01  3.154e+00  4.109e-02  4.109e-02
 2.283e+01  2.540e+00  3.304e-02  3.304e-02
 2.478e+01  2.041e+00  2.604e-02  2.604e-02
 2.683e+01  1.651e+00  2.104e-02  2.104e-02
 2.903e+01  1.336e+00  1.704e-02  1.704e-02
 3.138e+01  1.082e+00  1.404e-02  1.404e-02
 3.387e+01  8.794e-01  1.152e-02  1.152e-02
 3.657e+01  7.134e-01  9.316e-03  9.316e-03
 3.947e+01  5.795e-01  7.618e-03  7.618e-03
 4.257e+01  4.717e-01  6.214e-03  6.214e-03
 4.587e+01  3.840e-01  5.117e-03  5.117e-03
 4.942e+01  3.129e-01  4.211e-03  4.211e-03
 5.322e+01  2.549e-01  3.414e-03  3.414e-03
 5.727e+01  2.080e-01  2.807e-03  2.807e-03
 6.162e+01  1.701e-01  2.309e-03  2.309e-03
 6.632e+01  1.393e-01  1.911e-03  1.911e-03
 7.137e+01  1.132e-01  1.513e-03  1.513e-03
 7.677e+01  9.264e-02  1.277e-03  1.277e-03
 8.257e+01  7.530e-02  1.047e-03  1.047e-03
 8.882e+01  6.146e-02  8.559e-04  8.559e-04
 9.557e+01  5.026e-02  7.058e-04  7.058e-04
 1.031e+02  4.085e-02  5.842e-04  5.842e-04
 1.111e+02  3.294e-02  4.752e-04  4.752e-04
 1.196e+02  2.698e-02  3.946e-04  3.946e-04
 1.291e+02  2.174e-02  3.239e-04  3.239e-04
 1.401e+02  1.727e-02  2.631e-04  2.631e-04
 1.526e+02  1.358e-02  2.121e-04  2.121e-04
 1.666e+02  1.065e-02  1.726e-04  1.726e-04
 1.826e+02  8.212e-03  1.350e-04  1.350e-04
 2.006e+02  6.299e-03  1.057e-04  1.057e-04
 2.211e+02  4.793e-03  8.435e-05  8.435e-05
 2.451e+02  3.605e-03  6.610e-05  6.610e-05
 2.741e+02  2.647e-03  4.982e-05  4.982e-05
 3.096e+02  1.884e-03  3.766e-05  3.766e-05
 3.536e+02  1.288e-03  2.746e-05  2.746e-05
 4.091e+02  8.695e-04  1.987e-05  1.987e-05
 4.821e+02  5.545e-04  1.375e-05  1.375e-05
 5.831e+02  3.357e-04  9.356e-06  9.356e-06
 7.316e+02  1.860e-04  6.083e-06  6.083e-06
 9.751e+02  8.571e-05  3.589e-06  3.589e-06
 1.464e+03  2.933e-05  1.743e-06  1.743e-06
