# My local database
# https://pos.sissa.it/358/450
# T [GeV] flux [m-2 s-1 sr-1 GeV-1] total_error_low total_error_high
 1.803e+08  1.584e-19  6.422e-20  5.841e-20
 2.259e+08  9.443e-20  1.949e-20  3.207e-20
 2.825e+08  3.587e-20  1.190e-20  1.156e-20
 3.556e+08  1.910e-20  3.925e-21  4.100e-21
 4.457e+08  6.010e-21  1.173e-21  4.147e-21
 5.610e+08  5.354e-21  7.729e-22  1.234e-21
 7.063e+08  2.793e-21  3.682e-22  1.643e-21
 8.892e+08  1.585e-21  2.807e-22  7.617e-22
 1.117e+09  8.689e-22  2.487e-22  3.661e-22
 1.406e+09  5.004e-22  1.888e-22  9.726e-23
 1.770e+09  2.578e-22  9.950e-23  3.416e-23
 2.223e+09  1.201e-22  5.062e-23  1.274e-23
 2.805e+09  6.138e-23  2.479e-23  8.959e-25
 3.516e+09  2.453e-23  1.169e-23  5.186e-24
 4.446e+09  1.063e-23  5.293e-24  3.560e-24
 5.598e+09  3.550e-24  2.650e-24  3.080e-24
 6.998e+09  2.107e-24  1.579e-24  1.871e-24
 8.892e+09  7.836e-25  6.368e-25  1.049e-24
 1.114e+10  4.292e-25  3.716e-25  6.043e-25
 1.403e+10  4.663e-26  6.595e-26  3.201e-25
 1.762e+10  5.696e-26  7.440e-26  1.572e-25
 2.213e+10  0.000e+00  1.566e-27  8.243e-26
 2.799e+10  2.331e-27  3.297e-27  3.715e-26
 4.227e+10  0.000e+00  2.072e-28  3.966e-27
