# CRDB Database lpsc.in2p3.fr/cosmic-rays-db
# https://ui.adsabs.harvard.edu/abs/2019PhRvL.122r1102A
# T [GeV] flux [m-2 s-1 sr-1 GeV-1] total_error_low total_error_high
8.89877e+03   2.74100e-07   2.64753e-08   2.75989e-08   
7.06856e+03   5.05600e-07   4.47522e-08   5.17707e-08   
5.61477e+03   9.09000e-07   7.32580e-08   9.50187e-08   
4.45997e+03   1.66100e-06   1.22286e-07   1.54043e-07   
3.54269e+03   3.04400e-06   2.24878e-07   2.44118e-07   
2.81405e+03   5.53100e-06   4.06854e-07   4.10047e-07   
2.23530e+03   1.00100e-05   7.50133e-07   6.71342e-07   
1.77556e+03   1.77200e-05   1.29935e-06   1.12903e-06   
1.41035e+03   3.13100e-05   2.25509e-06   2.05861e-06   
1.12028e+03   5.66500e-05   4.54487e-06   3.76899e-06   
8.89860e+02   1.03700e-04   8.42437e-06   6.71863e-06   
7.06866e+02   1.90700e-04   1.57239e-05   1.11665e-05   
5.61500e+02   3.50500e-04   2.86477e-05   1.91534e-05   
4.45996e+02   6.56500e-04   5.44541e-05   3.54577e-05   
3.54247e+02   1.24200e-03   1.07898e-04   6.87968e-05   
2.81398e+02   2.34500e-03   1.71478e-04   1.79346e-04   
2.23517e+02   4.46300e-03   3.21842e-04   3.38599e-04   
1.77548e+02   8.55800e-03   6.24331e-04   6.60987e-04   
1.41045e+02   1.63100e-02   1.21860e-03   1.30192e-03   
1.12032e+02   3.15300e-02   2.31346e-03   2.46270e-03   
8.89687e+01   6.06400e-02   4.15272e-03   4.41056e-03   
7.06736e+01   1.15700e-01   7.41890e-03   7.80321e-03   
5.61385e+01   2.17600e-01   1.33664e-02   1.38166e-02   
