#Source: SSDC
#Ref: 10.1103/PhysRevLett.122.181102 (2019PhRvL.122r1102A)
#Experiment: CALET
#Quantity: H
#Units: kinetic Energy
#Url: https://tools.ssdc.asi.it/CosmicRays/
#Comments: 
5.62255e+01 2.17600e-01 1.33540e-02 1.38521e-02 1.20000e-03 1.20000e-03 
7.07823e+01 1.15700e-01 7.44312e-03 7.84092e-03 8.00000e-04 8.00000e-04 
8.91067e+01 6.06400e-02 4.15666e-03 4.40514e-03 4.70000e-04 4.70000e-04 
1.12205e+02 3.15300e-02 2.30957e-03 2.45837e-03 3.00000e-04 3.00000e-04 
1.41263e+02 1.63100e-02 1.21495e-03 1.30392e-03 1.90000e-04 1.90000e-04 
1.77822e+02 8.55800e-03 6.24042e-04 6.61350e-04 1.22000e-04 1.22000e-04 
2.23862e+02 4.46300e-03 3.21602e-04 3.38120e-04 7.80000e-05 7.80000e-05 
2.81832e+02 2.34500e-03 1.71453e-04 1.79120e-04 5.00000e-05 5.00000e-05 
3.54795e+02 1.24200e-03 1.08074e-04 6.91158e-05 4.00000e-06 4.00000e-06 
4.46685e+02 6.56500e-04 5.44772e-05 3.54189e-05 2.90000e-06 2.90000e-06 
5.62367e+02 3.50500e-04 2.86566e-05 1.91846e-05 1.80000e-06 1.80000e-06 
7.07957e+02 1.90700e-04 1.57458e-05 1.11647e-05 1.20000e-06 1.20000e-06 
8.91235e+02 1.03700e-04 8.43801e-06 6.74759e-06 8.00000e-07 8.00000e-07 
1.12205e+03 5.66500e-05 4.53763e-06 3.76336e-06 5.00000e-07 5.00000e-07 
1.41263e+03 3.13100e-05 2.25428e-06 2.05665e-06 3.30000e-07 3.30000e-07 
1.77822e+03 1.77200e-05 1.30050e-06 1.12379e-06 2.30000e-07 2.30000e-07 
2.23862e+03 1.00100e-05 7.45252e-07 6.67083e-07 1.50000e-07 1.50000e-07 
2.81832e+03 5.53100e-06 4.07236e-07 4.10154e-07 9.50000e-08 9.50000e-08 
3.54795e+03 3.04400e-06 2.25000e-07 2.44264e-07 6.30000e-08 6.30000e-08 
4.46685e+03 1.66100e-06 1.22090e-07 1.53574e-07 4.10000e-08 4.10000e-08 
5.62367e+03 9.09000e-07 7.01396e-08 9.50000e-08 2.66000e-08 2.66000e-08 
7.07957e+03 5.05600e-07 4.47236e-08 5.17151e-08 1.74000e-08 1.74000e-08 
8.91235e+03 2.74100e-07 2.64327e-08 2.76091e-08 1.15000e-08 1.15000e-08 
