#Source: KCDC
#Ref: 10.1016/j.astropartphys.2005.04.001 (2005APh....24....1A)
#Experiment: KASCADE
#Quantity: H
#Units: total Energy
#Url: https://kcdc.ikp.kit.edu/spectra/
#Comments: 
1.12202e+06 2.51529e-13 5.14561e-14 5.14561e-14 0.00000e+00 0.00000e+00 
1.41254e+06 1.33786e-13 2.64995e-14 2.64995e-14 0.00000e+00 0.00000e+00 
1.77828e+06 7.16540e-14 1.19075e-14 1.19075e-14 0.00000e+00 0.00000e+00 
2.23872e+06 4.15399e-14 8.19631e-15 8.19631e-15 0.00000e+00 0.00000e+00 
2.81838e+06 2.26013e-14 6.29556e-15 6.29556e-15 0.00000e+00 0.00000e+00 
3.54813e+06 9.69065e-15 2.71510e-15 2.71510e-15 0.00000e+00 0.00000e+00 
4.46684e+06 3.97022e-15 1.08546e-15 1.08546e-15 0.00000e+00 0.00000e+00 
5.62341e+06 1.60638e-15 5.31257e-16 5.31257e-16 0.00000e+00 0.00000e+00 
7.07946e+06 5.74436e-16 2.51442e-16 2.51442e-16 0.00000e+00 0.00000e+00 
8.91251e+06 1.84452e-16 7.74262e-17 7.74262e-17 0.00000e+00 0.00000e+00 
1.12202e+07 1.47406e-16 7.90233e-17 7.90233e-17 0.00000e+00 0.00000e+00 
1.41254e+07 6.69973e-17 3.45583e-17 3.45583e-17 0.00000e+00 0.00000e+00 
1.77828e+07 1.68834e-17 1.16335e-17 1.16335e-17 0.00000e+00 0.00000e+00 
2.23872e+07 1.30138e-17 1.08812e-17 1.08812e-17 0.00000e+00 0.00000e+00 
2.81838e+07 3.37208e-18 4.42224e-18 4.42224e-18 0.00000e+00 0.00000e+00 
3.54813e+07 1.28398e-18 2.80779e-18 2.80779e-18 0.00000e+00 0.00000e+00 
4.46684e+07 3.67267e-18 2.43065e-18 2.43065e-18 0.00000e+00 0.00000e+00 
5.62341e+07 3.91102e-19 1.27389e-18 1.27389e-18 0.00000e+00 0.00000e+00 
7.07946e+07 0.00000e+00 7.78631e-19 7.78631e-19 0.00000e+00 0.00000e+00 
8.91251e+07 0.00000e+00 1.30298e-18 1.30298e-18 0.00000e+00 0.00000e+00 
