# SSDC Cosmic Ray Database tools.asdc.asi.it/CosmicRays
# https://ui.adsabs.harvard.edu/abs/2018PhRvL.120z1102A
# T [GeV] flux [m-2 s-1 sr-1 GeV-1] total_error_low total_error_high
1.13625e+01   1.52600e-01   1.03078e-02   9.30860e-03   
1.30131e+01   9.93000e-02   4.39830e-03   5.33683e-03   
1.49008e+01   6.27700e-02   2.58699e-03   3.58504e-03   
1.70986e+01   4.02800e-02   1.71572e-03   2.50392e-03   
1.95425e+01   2.65000e-02   1.18423e-03   1.73289e-03   
2.23786e+01   1.70100e-02   7.94040e-04   1.13283e-03   
2.56707e+01   1.11400e-02   5.33385e-04   7.32462e-04   
2.94551e+01   7.05900e-03   3.40154e-04   4.49872e-04   
3.38415e+01   4.39900e-03   1.87182e-04   2.49884e-04   
3.88753e+01   2.85400e-03   1.20071e-04   1.52840e-04   
4.46569e+01   1.81800e-03   7.59539e-05   9.17878e-05   
5.12866e+01   1.18200e-03   4.98197e-05   5.67186e-05   
5.88647e+01   7.67000e-04   3.24777e-05   3.50274e-05   
6.75371e+01   4.98800e-04   2.11747e-05   2.15641e-05   
7.75499e+01   3.19100e-04   1.39718e-05   1.32966e-05   
8.90676e+01   2.07200e-04   9.30054e-06   8.44334e-06   
1.02272e+02   1.36000e-04   6.32456e-06   5.38516e-06   
1.17428e+02   8.81000e-05   4.27200e-06   3.53412e-06   
1.34773e+02   5.73000e-05   2.95466e-06   2.33238e-06   
1.54753e+02   3.80000e-05   2.10238e-06   1.66433e-06   
1.77734e+02   2.54000e-05   1.47648e-06   1.14018e-06   
2.04052e+02   1.63000e-05   9.43398e-07   7.81025e-07   
2.34255e+02   1.03000e-05   6.40312e-07   5.65685e-07   
2.68944e+02   6.88000e-06   4.32782e-07   3.75366e-07   
3.08768e+02   4.51000e-06   2.90000e-07   2.70185e-07   
3.54519e+02   2.85000e-06   2.00000e-07   1.94165e-07   
4.07055e+02   1.72000e-06   1.30384e-07   1.30384e-07   
4.67361e+02   1.12000e-06   8.60233e-08   8.60233e-08   
5.36594e+02   6.50000e-07   6.52993e-08   5.73062e-08   
6.16086e+02   4.49000e-07   4.84149e-08   4.49444e-08   
7.07397e+02   2.58000e-07   3.32866e-08   3.22490e-08   
8.12214e+02   1.87000e-07   2.84253e-08   2.55539e-08   
9.32533e+02   1.38000e-07   2.22036e-08   2.05913e-08   
1.07069e+03   9.31000e-08   1.47733e-08   1.57436e-08   
1.22934e+03   4.48000e-08   9.30054e-09   9.79898e-09   
1.41146e+03   1.67000e-08   5.33667e-09   5.53624e-09   
1.62054e+03   1.88000e-08   5.38516e-09   5.64624e-09   
1.86062e+03   1.25000e-08   4.05216e-09   4.25441e-09   
2.13630e+03   3.79000e-09   2.17697e-09   3.12872e-09   
2.45279e+03   3.06000e-09   1.50791e-09   2.34830e-09   
2.81614e+03   3.13000e-09   1.75482e-09   2.12641e-09   
3.23335e+03   1.05000e-09   7.78781e-10   1.44682e-09   
3.71243e+03   9.60000e-10   7.06377e-10   1.28461e-09   
4.26243e+03   8.29000e-10   6.11249e-10   1.14181e-09   
