#Source: 
#Ref: Amenomori et al., The Astrophysical Journal (2008) 678 ()
#Experiment: TIBET
#Quantity: all particle
#Units: total Energy
#Url: https://iopscience.iop.org/article/10.1086/529514
#Comments: using the column of QGSJET+HD from Table 4
1.12000e+05 9.30000e-10 2.00000e-13 2.00000e-13 0.00000e+00 0.00000e+00 
1.41000e+05 5.00800e-10 1.00000e-13 1.00000e-13 0.00000e+00 0.00000e+00 
1.78000e+05 2.73200e-10 1.00000e-13 1.00000e-13 0.00000e+00 0.00000e+00 
2.24000e+05 1.47000e-10 1.00000e-13 1.00000e-13 0.00000e+00 0.00000e+00 
2.82000e+05 7.93400e-11 4.00000e-14 4.00000e-14 0.00000e+00 0.00000e+00 
3.55000e+05 4.29600e-11 3.00000e-14 3.00000e-14 0.00000e+00 0.00000e+00 
4.47000e+05 2.32300e-11 2.00000e-14 2.00000e-14 0.00000e+00 0.00000e+00 
5.62000e+05 1.26200e-11 1.00000e-14 1.00000e-14 0.00000e+00 0.00000e+00 
7.08000e+05 6.83400e-12 8.00000e-15 8.00000e-15 0.00000e+00 0.00000e+00 
8.91000e+05 3.69500e-12 5.00000e-15 5.00000e-15 0.00000e+00 0.00000e+00 
1.12000e+06 2.00100e-12 3.00000e-15 3.00000e-15 0.00000e+00 0.00000e+00 
1.41000e+06 1.09200e-12 2.00000e-15 2.00000e-15 0.00000e+00 0.00000e+00 
1.78000e+06 5.94700e-13 1.40000e-15 1.40000e-15 0.00000e+00 0.00000e+00 
2.24000e+06 3.22800e-13 9.00000e-16 9.00000e-16 0.00000e+00 0.00000e+00 
2.82000e+06 1.73800e-13 6.00000e-16 6.00000e-16 0.00000e+00 0.00000e+00 
3.55000e+06 9.30100e-14 4.00000e-16 4.00000e-16 0.00000e+00 0.00000e+00 
4.47000e+06 4.69200e-14 2.50000e-16 2.50000e-16 0.00000e+00 0.00000e+00 
5.62000e+06 2.38400e-14 1.60000e-16 1.60000e-16 0.00000e+00 0.00000e+00 
7.08000e+06 1.15900e-14 1.00000e-16 1.00000e-16 0.00000e+00 0.00000e+00 
8.91000e+06 5.57100e-15 6.10000e-17 6.10000e-17 0.00000e+00 0.00000e+00 
1.12000e+07 2.63100e-15 3.70000e-17 3.70000e-17 0.00000e+00 0.00000e+00 
1.41000e+07 1.26500e-15 2.30000e-17 2.30000e-17 0.00000e+00 0.00000e+00 
1.78000e+07 6.63100e-16 1.49000e-17 1.49000e-17 0.00000e+00 0.00000e+00 
2.24000e+07 3.17700e-16 9.20000e-18 9.20000e-18 0.00000e+00 0.00000e+00 
2.82000e+07 1.65100e-16 5.90000e-18 5.90000e-18 0.00000e+00 0.00000e+00 
3.55000e+07 8.10100e-17 3.70000e-18 3.70000e-18 0.00000e+00 0.00000e+00 
4.47000e+07 3.61400e-17 2.20000e-18 2.20000e-18 0.00000e+00 0.00000e+00 
5.62000e+07 2.14600e-17 1.51000e-18 1.51000e-18 0.00000e+00 0.00000e+00 
7.08000e+07 9.76400e-18 9.08000e-19 9.08000e-19 0.00000e+00 0.00000e+00 
8.91000e+07 4.15600e-18 5.28000e-19 5.28000e-19 0.00000e+00 0.00000e+00 
1.12000e+08 2.69400e-18 3.79000e-19 3.79000e-19 0.00000e+00 0.00000e+00 
1.41000e+08 1.24200e-18 2.29000e-19 2.29000e-19 0.00000e+00 0.00000e+00 
1.78000e+08 5.31000e-19 1.33700e-19 1.33700e-19 0.00000e+00 0.00000e+00 
