# My local database
# https://doi.org/10.1103/PhysRevD.100.082002
# T [GeV] flux [m-2 s-1 sr-1 GeV-1] total_error_low total_error_high
 3.548e+06  9.005e-14  5.871e-15  6.680e-15
 4.467e+06  4.612e-14  3.170e-15  3.770e-15
 5.623e+06  2.323e-14  1.680e-15  2.030e-15
 7.079e+06  1.158e-14  8.702e-16  1.030e-15
 8.913e+06  5.635e-15  4.462e-16  5.242e-16
 1.122e+07  2.698e-15  2.201e-16  2.541e-16
 1.413e+07  1.308e-15  9.413e-17  1.171e-16
 1.778e+07  6.473e-16  4.741e-17  5.929e-17
 2.239e+07  3.250e-16  2.358e-17  2.668e-17
 2.818e+07  1.657e-16  1.167e-17  1.336e-17
 3.548e+07  8.600e-17  6.018e-18  6.900e-18
 4.467e+07  4.399e-17  3.807e-18  4.333e-18
 5.623e+07  2.194e-17  1.409e-18  2.215e-18
 7.079e+07  1.132e-17  1.002e-18  8.853e-19
 8.913e+07  5.532e-18  5.010e-19  5.892e-19
 1.259e+08  2.062e-18  1.556e-19  2.105e-19
 1.995e+08  4.619e-19  4.656e-20  5.781e-20
 3.162e+08  9.966e-20  1.217e-20  1.637e-20
 5.012e+08  2.237e-20  2.791e-21  3.239e-21
 7.943e+08  5.283e-21  1.203e-21  1.404e-21
