# My local database
# 
# T [GeV] flux [m-2 s-1 sr-1 GeV-1] total_error_low total_error_high
 1.413e+06  1.114e-12  1.073e-14  1.073e-14
 1.778e+06  5.844e-13  6.126e-15  6.126e-15
 2.239e+06  3.117e-13  3.862e-15  3.862e-15
 2.818e+06  1.669e-13  2.553e-15  2.553e-15
 3.548e+06  8.343e-14  1.663e-15  1.663e-15
 4.467e+06  4.353e-14  1.298e-15  1.298e-15
 5.623e+06  2.189e-14  7.220e-16  7.220e-16
 7.079e+06  1.151e-14  4.422e-16  4.422e-16
 8.913e+06  5.092e-15  2.701e-16  2.701e-16
 1.122e+07  2.878e-15  1.664e-16  1.664e-16
 1.413e+07  1.214e-15  9.698e-17  9.698e-17
 1.778e+07  7.419e-16  6.843e-17  6.843e-17
 2.239e+07  2.907e-16  3.574e-17  3.574e-17
 2.818e+07  1.988e-16  2.584e-17  2.584e-17
 3.548e+07  5.734e-17  1.204e-17  1.204e-17
 4.467e+07  4.366e-17  7.307e-18  7.307e-18
 5.623e+07  1.879e-17  5.240e-18  5.240e-18
 7.079e+07  7.001e-18  2.382e-18  2.382e-18
 8.913e+07  5.563e-18  1.515e-18  1.515e-18
