#Source: 
#Ref: HAWC collaboration, Phys.Rev.D (2017) 96 ()
#Experiment: HAWC
#Quantity: all particle
#Units: total Energy
#Url: 
#Comments: from their TABLE IV
1.12202e+04 4.79680e-07 1.44310e-07 1.01890e-07 0.00000e+00 0.00000e+00 
1.41254e+04 2.69220e-07 6.79000e-08 4.68300e-08 0.00000e+00 0.00000e+00 
1.77828e+04 1.51630e-07 3.54500e-08 2.50400e-08 0.00000e+00 0.00000e+00 
2.23872e+04 8.49470e-08 1.95560e-08 1.44890e-08 0.00000e+00 0.00000e+00 
2.81838e+04 4.78230e-08 1.05100e-08 8.06700e-09 0.00000e+00 0.00000e+00 
3.54813e+04 2.67610e-08 6.05800e-09 4.91300e-09 0.00000e+00 0.00000e+00 
4.46684e+04 1.48230e-08 3.17400e-09 2.66200e-09 0.00000e+00 0.00000e+00 
5.62341e+04 8.18390e-09 1.79880e-09 1.58710e-09 0.00000e+00 0.00000e+00 
7.07946e+04 4.47690e-09 9.76901e-10 9.03501e-10 0.00000e+00 0.00000e+00 
8.91251e+04 2.41930e-09 5.29100e-10 5.15900e-10 0.00000e+00 0.00000e+00 
1.12202e+05 1.27810e-09 2.79600e-10 2.89300e-10 0.00000e+00 0.00000e+00 
1.41254e+05 6.76360e-10 1.40170e-10 1.56050e-10 0.00000e+00 0.00000e+00 
1.77828e+05 3.58350e-10 7.32602e-11 8.87502e-11 0.00000e+00 0.00000e+00 
2.23872e+05 1.91070e-10 3.77802e-11 5.07401e-11 0.00000e+00 0.00000e+00 
2.81838e+05 1.03460e-10 2.05801e-11 3.07601e-11 0.00000e+00 0.00000e+00 
3.54813e+05 5.48820e-11 1.09451e-11 1.85791e-11 0.00000e+00 0.00000e+00 
4.46684e+05 2.92840e-11 5.84308e-12 1.20440e-11 0.00000e+00 0.00000e+00 
