# My local database
# 
# T [GeV] flux [m-2 s-1 sr-1 GeV-1] total_error_low total_error_high
 1.503e+03  7.527e-05  0.000e+00  0.000e+00
 1.562e+03  6.766e-05  0.000e+00  0.000e+00
 1.623e+03  6.083e-05  0.000e+00  0.000e+00
 1.686e+03  5.470e-05  0.000e+00  0.000e+00
 1.753e+03  4.920e-05  0.000e+00  0.000e+00
 1.821e+03  4.427e-05  0.000e+00  0.000e+00
 1.893e+03  3.984e-05  0.000e+00  0.000e+00
 1.967e+03  3.586e-05  0.000e+00  0.000e+00
 2.044e+03  3.229e-05  0.000e+00  0.000e+00
 2.124e+03  2.908e-05  0.000e+00  0.000e+00
 2.208e+03  2.620e-05  0.000e+00  0.000e+00
 2.294e+03  2.361e-05  0.000e+00  0.000e+00
 2.384e+03  2.128e-05  0.000e+00  0.000e+00
 2.478e+03  1.919e-05  0.000e+00  0.000e+00
 2.575e+03  1.730e-05  0.000e+00  0.000e+00
 2.676e+03  1.561e-05  0.000e+00  0.000e+00
 2.781e+03  1.409e-05  0.000e+00  0.000e+00
 2.890e+03  1.271e-05  0.000e+00  0.000e+00
 3.003e+03  1.148e-05  0.000e+00  0.000e+00
 3.121e+03  1.037e-05  0.000e+00  0.000e+00
 3.243e+03  9.369e-06  0.000e+00  0.000e+00
 3.370e+03  8.468e-06  0.000e+00  0.000e+00
 3.502e+03  7.657e-06  0.000e+00  0.000e+00
 3.640e+03  6.926e-06  0.000e+00  0.000e+00
 3.783e+03  6.267e-06  0.000e+00  0.000e+00
 3.931e+03  5.673e-06  0.000e+00  0.000e+00
 4.085e+03  5.137e-06  0.000e+00  0.000e+00
 4.245e+03  4.653e-06  0.000e+00  0.000e+00
 4.412e+03  4.216e-06  0.000e+00  0.000e+00
 4.585e+03  3.821e-06  0.000e+00  0.000e+00
 4.764e+03  3.464e-06  0.000e+00  0.000e+00
 4.951e+03  3.141e-06  0.000e+00  0.000e+00
 5.145e+03  2.848e-06  0.000e+00  0.000e+00
 5.347e+03  2.583e-06  0.000e+00  0.000e+00
 5.557e+03  2.343e-06  0.000e+00  0.000e+00
 5.775e+03  2.125e-06  0.000e+00  0.000e+00
 6.001e+03  1.927e-06  0.000e+00  0.000e+00
 6.237e+03  1.748e-06  0.000e+00  0.000e+00
 6.481e+03  1.585e-06  0.000e+00  0.000e+00
 6.735e+03  1.437e-06  0.000e+00  0.000e+00
 6.999e+03  1.303e-06  0.000e+00  0.000e+00
 7.274e+03  1.181e-06  0.000e+00  0.000e+00
 7.559e+03  1.070e-06  0.000e+00  0.000e+00
 7.856e+03  9.694e-07  0.000e+00  0.000e+00
 8.164e+03  8.782e-07  0.000e+00  0.000e+00
 8.484e+03  7.956e-07  0.000e+00  0.000e+00
 8.816e+03  7.207e-07  0.000e+00  0.000e+00
 9.162e+03  6.529e-07  0.000e+00  0.000e+00
 9.521e+03  5.914e-07  0.000e+00  0.000e+00
 9.895e+03  5.357e-07  0.000e+00  0.000e+00
 1.028e+04  4.853e-07  0.000e+00  0.000e+00
 1.069e+04  4.398e-07  0.000e+00  0.000e+00
 1.111e+04  3.985e-07  0.000e+00  0.000e+00
 1.154e+04  3.613e-07  0.000e+00  0.000e+00
 1.199e+04  3.276e-07  0.000e+00  0.000e+00
 1.246e+04  2.971e-07  0.000e+00  0.000e+00
 1.295e+04  2.694e-07  0.000e+00  0.000e+00
 1.346e+04  2.444e-07  0.000e+00  0.000e+00
 1.399e+04  2.217e-07  0.000e+00  0.000e+00
 1.454e+04  2.012e-07  0.000e+00  0.000e+00
 1.511e+04  1.825e-07  0.000e+00  0.000e+00
 1.570e+04  1.655e-07  0.000e+00  0.000e+00
 1.631e+04  1.501e-07  0.000e+00  0.000e+00
 1.695e+04  1.361e-07  0.000e+00  0.000e+00
 1.762e+04  1.234e-07  0.000e+00  0.000e+00
 1.831e+04  1.118e-07  0.000e+00  0.000e+00
 1.903e+04  1.012e-07  0.000e+00  0.000e+00
 1.977e+04  9.159e-08  0.000e+00  0.000e+00
 2.055e+04  8.284e-08  0.000e+00  0.000e+00
 2.136e+04  7.487e-08  0.000e+00  0.000e+00
 2.219e+04  6.763e-08  0.000e+00  0.000e+00
 2.306e+04  6.104e-08  0.000e+00  0.000e+00
 2.397e+04  5.505e-08  0.000e+00  0.000e+00
 2.491e+04  4.961e-08  0.000e+00  0.000e+00
 2.588e+04  4.467e-08  0.000e+00  0.000e+00
 2.690e+04  4.019e-08  0.000e+00  0.000e+00
 2.795e+04  3.613e-08  0.000e+00  0.000e+00
 2.905e+04  3.244e-08  0.000e+00  0.000e+00
 3.019e+04  2.911e-08  0.000e+00  0.000e+00
 3.137e+04  2.609e-08  0.000e+00  0.000e+00
 3.260e+04  2.337e-08  0.000e+00  0.000e+00
 3.388e+04  2.091e-08  0.000e+00  0.000e+00
 3.521e+04  1.871e-08  0.000e+00  0.000e+00
 3.659e+04  1.673e-08  0.000e+00  0.000e+00
 3.803e+04  1.497e-08  0.000e+00  0.000e+00
 3.952e+04  1.339e-08  0.000e+00  0.000e+00
 4.107e+04  1.199e-08  0.000e+00  0.000e+00
 4.268e+04  1.075e-08  0.000e+00  0.000e+00
 4.435e+04  9.638e-09  0.000e+00  0.000e+00
 4.609e+04  8.655e-09  0.000e+00  0.000e+00
 4.790e+04  7.784e-09  0.000e+00  0.000e+00
 4.978e+04  7.011e-09  0.000e+00  0.000e+00
 5.173e+04  6.326e-09  0.000e+00  0.000e+00
 5.376e+04  5.718e-09  0.000e+00  0.000e+00
 5.587e+04  5.176e-09  0.000e+00  0.000e+00
 5.806e+04  4.691e-09  0.000e+00  0.000e+00
 6.033e+04  4.258e-09  0.000e+00  0.000e+00
 6.270e+04  3.869e-09  0.000e+00  0.000e+00
 6.516e+04  3.519e-09  0.000e+00  0.000e+00
 6.771e+04  3.205e-09  0.000e+00  0.000e+00
