# SSDC Cosmic Ray Database tools.asdc.asi.it/CosmicRays
# https://ui.adsabs.harvard.edu/abs/2019PhRvL.122d1102A
# T [GeV] flux [m-2 s-1 sr-1 GeV-1] total_error_low total_error_high
5.68460e-01   2.66900e+00   1.78219e-01   1.78219e-01   
7.28432e-01   2.57600e+00   1.08931e-01   1.08931e-01   
9.08413e-01   2.27200e+00   7.27805e-02   7.27805e-02   
1.10840e+00   1.92900e+00   5.02195e-02   5.02195e-02   
1.33283e+00   1.52800e+00   3.27567e-02   3.27567e-02   
1.58291e+00   1.19600e+00   2.15870e-02   2.15870e-02   
1.85297e+00   9.23900e-01   1.42636e-02   1.42636e-02   
2.14756e+00   7.00300e-01   9.75141e-03   9.75141e-03   
2.47223e+00   5.34100e-01   6.98570e-03   6.98570e-03   
2.81777e+00   3.98300e-01   5.06952e-03   5.06952e-03   
3.17320e+00   3.02400e-01   3.73631e-03   3.73631e-03   
3.53856e+00   2.33800e-01   2.91204e-03   2.91204e-03   
3.91854e+00   1.80900e-01   2.18403e-03   2.18403e-03   
4.32321e+00   1.38900e-01   1.67631e-03   1.67631e-03   
4.76260e+00   1.06900e-01   1.36015e-03   1.36015e-03   
5.23737e+00   8.20800e-02   1.03740e-03   1.03740e-03   
5.73745e+00   6.27800e-02   8.00062e-04   8.00062e-04   
6.26225e+00   4.92300e-02   6.32456e-04   6.32456e-04   
6.81233e+00   3.89000e-02   5.09215e-04   5.09215e-04   
7.38715e+00   3.01800e-02   3.95601e-04   3.95601e-04   
7.98724e+00   2.40600e-02   3.23110e-04   3.23110e-04   
8.61683e+00   1.90000e-02   2.60000e-04   2.60000e-04   
9.27694e+00   1.53000e-02   2.06155e-04   2.06155e-04   
9.96181e+00   1.24200e-02   1.74642e-04   1.74642e-04   
1.06719e+01   1.00700e-02   1.43178e-04   1.43178e-04   
1.14116e+01   8.30200e-03   1.21198e-04   1.21198e-04   
1.21865e+01   6.91800e-03   1.02000e-04   1.02000e-04   
1.29914e+01   5.66800e-03   8.59593e-05   8.59593e-05   
1.38215e+01   4.64300e-03   7.13442e-05   7.13442e-05   
1.46860e+01   3.86400e-03   6.02080e-05   6.02080e-05   
1.55861e+01   3.26200e-03   5.21536e-05   5.21536e-05   
1.65159e+01   2.71800e-03   4.46542e-05   4.46542e-05   
1.74808e+01   2.29300e-03   3.80132e-05   3.80132e-05   
1.84758e+01   1.93300e-03   3.22025e-05   3.22025e-05   
1.95056e+01   1.66600e-03   2.86007e-05   2.86007e-05   
2.05754e+01   1.45400e-03   2.50000e-05   2.50000e-05   
2.16804e+01   1.21400e-03   2.20227e-05   2.20227e-05   
2.28250e+01   1.01800e-03   1.84391e-05   1.84391e-05   
2.40100e+01   9.03100e-04   1.68671e-05   1.68671e-05   
2.52492e+01   7.64700e-04   1.45836e-05   1.45836e-05   
2.65636e+01   6.75700e-04   1.30908e-05   1.30908e-05   
2.79528e+01   5.74700e-04   1.14560e-05   1.14560e-05   
2.94317e+01   5.06300e-04   1.01823e-05   1.01823e-05   
3.10011e+01   4.27300e-04   8.91403e-06   8.91403e-06   
3.26601e+01   3.68100e-04   7.93095e-06   7.93095e-06   
3.44288e+01   3.12600e-04   6.87677e-06   6.87677e-06   
3.63176e+01   2.75400e-04   6.24820e-06   6.24820e-06   
3.83312e+01   2.32800e-04   5.24976e-06   5.24976e-06   
4.04797e+01   2.00400e-04   4.84149e-06   4.84149e-06   
4.27828e+01   1.72300e-04   4.28019e-06   4.28019e-06   
4.52607e+01   1.44600e-04   3.72022e-06   3.72022e-06   
4.79235e+01   1.32300e-04   3.44093e-06   3.44093e-06   
5.08005e+01   1.02900e-04   2.88444e-06   2.88444e-06   
5.39224e+01   8.86000e-05   2.54096e-06   2.54096e-06   
5.73184e+01   7.55800e-05   2.22812e-06   2.22812e-06   
6.10337e+01   6.11500e-05   1.90539e-06   1.90539e-06   
6.51131e+01   5.50200e-05   1.73046e-06   1.73046e-06   
6.96210e+01   4.36700e-05   1.44627e-06   1.44627e-06   
7.46468e+01   3.82600e-05   1.27142e-06   1.27142e-06   
8.02906e+01   3.01300e-05   1.06471e-06   1.06471e-06   
8.66854e+01   2.51100e-05   9.12414e-07   9.12414e-07   
9.40247e+01   2.03700e-05   7.64788e-07   7.64788e-07   
1.02563e+02   1.46100e-05   6.40781e-07   6.40781e-07   
1.12668e+02   1.17300e-05   5.20000e-07   5.20000e-07   
1.25000e+02   8.67700e-06   4.05188e-07   4.05188e-07   
1.40119e+02   6.99800e-06   3.27771e-07   3.27771e-07   
1.58884e+02   4.59500e-06   2.36425e-07   2.36425e-07   
1.83099e+02   3.20100e-06   1.73692e-07   1.73692e-07   
2.16252e+02   1.87100e-06   1.17652e-07   1.17652e-07   
2.61834e+02   1.15800e-06   8.12712e-08   8.12712e-08   
3.26760e+02   5.77300e-07   5.18185e-08   5.18185e-08   
4.28501e+02   2.49100e-07   3.00128e-08   3.00128e-08   
5.88837e+02   8.31200e-08   1.84351e-08   1.84351e-08   
8.32260e+02   1.92700e-08   1.17418e-08   1.17418e-08   
