# SSDC Cosmic Ray Database tools.asdc.asi.it/CosmicRays
# https://ui.adsabs.harvard.edu/abs/2013PhRvL.111h1102A
# T [GeV] flux [m-2 s-1 sr-1 GeV-1] total_error_low total_error_high
1.64090e+00   1.76246e+00   1.13481e-01   1.13481e-01   
1.94230e+00   1.26240e+00   8.26097e-02   8.26097e-02   
2.37493e+00   8.08300e-01   5.21518e-02   5.21518e-02   
3.06550e+00   4.11100e-01   2.68002e-02   2.68002e-02   
3.82876e+00   2.25700e-01   1.58114e-02   1.58114e-02   
4.57678e+00   1.36800e-01   9.62081e-03   9.62081e-03   
5.46966e+00   7.99100e-02   5.49117e-03   5.49117e-03   
6.90443e+00   3.84400e-02   2.78568e-03   2.78568e-03   
8.92577e+00   1.71400e-02   1.35070e-03   1.35070e-03   
1.13692e+01   8.38000e-03   6.84763e-04   6.84763e-04   
1.39523e+01   4.81600e-03   4.85412e-04   4.85412e-04   
1.72611e+01   2.30200e-03   2.21452e-04   2.21452e-04   
2.35535e+01   9.22000e-04   1.05646e-04   1.05646e-04   
3.40603e+01   3.25000e-04   4.24264e-05   4.24264e-05   
5.18391e+01   1.08600e-04   1.78393e-05   1.78393e-05   
8.00063e+01   3.45000e-05   7.58222e-06   7.58222e-06   
1.38672e+02   1.17600e-05   3.53102e-06   3.53102e-06   
