# E_nu [GeV] - E^2_nu F [GeV s^-1 cm^-2]
1.01717e+3  1.39602e-7
1.31310e+3  1.23776e-7
1.63839e+3  1.12171e-7
2.04426e+3  1.00548e-7
2.73042e+3  8.81796e-8
3.46530e+3  7.81829e-8
4.78875e+3  6.80051e-8
6.50592e+3  5.89907e-8
9.30201e+3  5.06146e-8
1.35282e+4  4.28380e-8
2.00122e+4  3.62562e-8
2.76551e+4  3.14503e-8
3.75717e+4  2.75062e-8
5.19209e+4  2.35361e-8
7.23635e+4  1.95422e-8
9.83119e+4  1.60057e-8

