# E_nu [GeV] - E^2_nu F [GeV s^-1 cm^-2]
1.10755e+3  9.11213e-8
1.40564e+3  8.16797e-8
1.87745e+3  7.24198e-8
2.46528e+3  6.35112e-8
3.18253e+3  5.64653e-8
4.17900e+3  5.04763e-8
5.58168e+3  4.45098e-8
7.45518e+3  4.00072e-8
1.04793e+4  3.48944e-8
1.55020e+4  3.08540e-8
2.41337e+4  2.61850e-8
4.16125e+4  2.18609e-8
6.81776e+4  1.82010e-8
9.42154e+4  1.58316e-8
1.23715e+5  1.38841e-8
1.46676e+5  1.27208e-8

