# E [1e6 GeV] - flux [GeV-1 m-2 s-1 sr-1] - stat - syst
 1.94   5.612e-13    0.018e-13   1.2e-13
 2.44   2.974e-13    0.012e-13   0.6e-13
 3.07   1.589e-13    0.008e-13   0.4e-13
 3.86   8.30e-14     0.06e-14    1.8e-14
 4.86   4.22e-14     0.04e-14    1.0e-14
 6.12   2.0988e-14   0.023e-14   0.5e-14
 7.71   1.021e-14    0.015e-14   0.24e-14
 9.70   4.92e-15     0.10e-15    1.2e-15
12.21   2.38e-15     0.06e-15    0.6e-15
15.38   1.18e-15     0.04e-15    0.29e-15
19.36   5.58e-16     0.23e-16    1.4e-16
24.37   2.66e-16     0.15e-16    0.6e-16
30.68   1.51e-16     0.10e-16    0.4e-16
38.62   7.5e-17      0.7e-17     1.9e-17
48.62   3.72e-17     0.4e-17     0.9e-17
61.21   1.97e-17     0.25e-17    0.5e-17
77.06   1.05e-17     0.17e-17    0.27e-17
97.01   4.7e-18      1.0e-18     1.4e-18