# log10(E/GeV) - flux - stat - syst_down - syst_up
6.55 9.005e-14 0.008e-14 0.587e-14 0.668e-14
6.65 4.612e-14 0.005e-14 0.317e-14 0.377e-14
6.75 2.323e-14 0.003e-14 0.168e-14 0.203e-14
6.85 1.158e-14 0.002e-14 0.087e-14 0.103e-14
6.95 5.635e-15 0.014e-15 0.446e-15 0.524e-15
7.05 2.698e-15 0.008e-15 0.220e-15 0.254e-15
7.15 1.308e-15 0.005e-15 0.094e-15 0.117e-15
7.25 6.473e-16 0.032e-16 0.473e-16 0.592e-16
7.35 3.250e-16 0.020e-16 0.235e-16 0.266e-16
7.45 1.657e-16 0.013e-16 0.116e-16 0.133e-16
7.55 8.600e-17 0.083e-17 0.596e-17 0.685e-17
7.65 4.399e-17 0.053e-17 0.377e-17 0.430e-17
7.75 2.194e-17 0.033e-17 0.137e-17 0.219e-17
7.85 1.132e-17 0.021e-17 0.098e-17 0.086e-17
7.95 5.532e-18 0.133e-18 0.483e-18 0.574e-18
8.10 2.062e-18 0.048e-18 0.148e-18 0.205e-18
8.30 4.619e-19 0.181e-19 0.429e-19 0.549e-19
8.50 9.966e-20 0.666e-20 1.019e-20 1.495e-20
8.70 2.237e-20 0.250e-20 0.124e-20 0.206e-20
8.90 5.283e-21 0.964e-21 0.720e-21 1.021e-21
