# E [GeV] - dJdE [m-2 s-1 sr-1 GeV-1] - stat. errors
1.12e5 9.300e-10 0.002e-10
1.41e5 5.008e-10 0.001e-10
1.78e5 2.732e-10 0.001e-10
2.24e5 1.470e-10 0.001e-10
2.82e5 7.934e-11 0.004e-11
3.55e5 4.296e-11 0.003e-11
4.47e5 2.323e-11 0.002e-11
5.62e5 1.262e-11 0.001e-11
7.08e5 6.834e-12 0.008e-12
8.91e5 3.695e-12 0.005e-12
1.12e6 2.001e-12 0.003e-12
1.41e6 1.092e-12 0.002e-12
1.78e6 5.947e-13 0.014e-13
2.24e6 3.228e-13 0.009e-13
2.82e6 1.738e-13 0.006e-13
3.55e6 9.301e-14 0.040e-14
4.47e6 4.692e-14 0.025e-14
5.62e6 2.384e-14 0.016e-14
7.08e6 1.159e-14 0.010e-14
8.91e6 5.571e-15 0.061e-15
1.12e7 2.631e-15 0.037e-15
1.41e7 1.265e-15 0.023e-15
1.78e7 6.631e-16 0.149e-16
2.24e7 3.177e-16 0.092e-16
2.82e7 1.651e-16 0.059e-16
3.55e7 8.101e-17 0.370e-17
4.47e7 3.614e-17 0.220e-17
5.62e7 2.146e-17 0.151e-17
7.08e7 9.764e-18 0.908e-18
8.91e7 4.156e-18 0.528e-18
1.12e8 2.694e-18 0.379e-18
1.41e8 1.242e-18 0.229e-18
1.78e8 5.310e-19 1.337e-19
