# log10(E/GeV) - flux - stat - syst_down - syst_up
6.450 1.730e-13 0.001e-13 0.131e-13 0.151e-13 
6.525 1.063e-13 0.001e-13 0.085e-13 0.097e-13  
6.575 7.667e-14 0.006e-14 0.612e-14 0.734e-14
6.625 5.508e-14 0.005e-14 0.448e-14 0.512e-14
6.675 3.927e-14 0.004e-14 0.330e-14 0.380e-14
6.725 2.787e-14 0.003e-14 0.235e-14 0.264e-14
6.775 1.967e-14 0.002e-14 0.168e-14 0.190e-14 
6.825 1.390e-14 0.002e-14 0.120e-14 0.139e-14
6.875 9.742e-15 0.015e-15 0.859e-15 0.943e-15
6.925 6.797e-15 0.012e-15 0.614e-15 0.694e-15 
6.975 4.745e-15 0.009e-15 0.433e-15 0.455e-15
7.025 3.288e-15 0.007e-15 0.305e-15 0.338e-15
7.075 2.289e-15 0.006e-15 0.212e-15 0.225e-15
7.125 1.604e-15 0.004e-15 0.142e-15 0.158e-15
7.175 1.122e-15 0.004e-15 0.104e-15 0.108e-15
7.225 7.893e-16 0.028e-16 0.709e-16 0.709e-16
7.275 5.591e-16 0.022e-16 0.488e-16 0.547e-16
7.325 3.960e-16 0.018e-16 0.368e-16 0.385e-16
7.375 2.828e-16 0.014e-16 0.244e-16 0.248e-16
7.425 2.011e-16 0.011e-16 0.188e-16 0.192e-16
7.475 1.430e-16 0.009e-16 0.128e-16 0.132e-16
7.525 1.031e-16 0.007e-16 0.093e-16 0.091e-16
7.575 7.431e-17 0.057e-17 0.599e-17 0.631e-17
7.625 5.350e-17 0.045e-17 0.507e-17 0.486e-17
7.675 3.754e-17 0.036e-17 0.317e-17 0.423e-17
7.725 2.640e-17 0.028e-17 0.258e-17 0.245e-17
7.775 1.943e-17 0.023e-17 0.168e-17 0.141e-17 
7.825 1.369e-17 0.018e-17 0.109e-17 0.140e-17  
7.875 1.008e-17 0.015e-17 0.121e-17 0.086e-17
7.925 6.912e-18 0.115e-18 0.529e-18 0.704e-18  
7.975 4.948e-18 0.092e-18 0.441e-18 0.393e-18  
8.050 2.934e-18 0.046e-18 0.291e-18 0.273e-18
8.150 1.468e-18 0.029e-18 0.142e-18 0.179e-18
8.250 6.991e-19 0.178e-19 0.725e-19 0.551e-19
8.350 3.146e-19 0.106e-19 0.282e-19 0.324e-19
8.450 1.602e-19 0.068e-19 0.144e-19 0.155e-19
8.550 6.468e-20 0.382e-20 0.637e-20 0.798e-20
8.650 3.169e-20 0.239e-20 0.390e-20 0.280e-20
8.750 1.350e-20 0.139e-20 0.443e-20 0.355e-20
8.850 6.091e-21 0.837e-21 0.612e-21 0.842e-21
8.950 2.492e-21 0.480e-21 0.514e-21 0.440e-21
9.050 8.199e-22 2.472e-22 4.278e-22 2.228e-22